timestamp,avgRed,avgGreen,avgBlue
1791600307.5130800,185,10,0
1791600307.54642,187,10,0
1791600307.580400,188,10,0
1791600307.612330,189,9,0
1791600307.645750,191,8,0
1791600307.669550,195,6,0
1791600307.702940,201,5,0
1791600307.7362100,208,4,0
1791600307.769800,213,3,0
1791600307.80576,213,2,0
1791600307.83706,210,2,0
1791600307.870500,208,1,0
1791600307.90479,206,1,0
1791600307.9399,205,0,0
1791600307.975530,204,0,0
1791600308.0134500,205,0,0
1791600308.041700,205,1,0
1791600308.069530,205,1,0
1791600308.103410,205,1,0
1791600308.1391000,206,1,0
1791600308.171380,206,2,0
1791600308.20278,206,2,0
1791600308.239790,206,2,0
1791600308.2704300,207,2,0
1791600308.308800,206,2,0
1791600308.3378900,207,2,0
1791600308.3730300,207,2,0
1791600308.4111500,206,3,0
1791600308.448320,205,3,0
1791600308.481450,205,3,0
1791600308.514560,205,3,0
1791600308.5478,206,3,0
1791600308.580520,206,3,0
1791600308.615570,207,3,0
1791600308.6476800,207,3,0
1791600308.6811200,207,3,0
1791600308.714280,206,3,0
1791600308.747450,206,3,0
1791600308.780990,205,3,0
1791600308.814090,205,3,0
1791600308.847890,204,3,0
1791600308.881430,203,2,0
1791600308.9148000,203,2,0
1791600308.9476800,203,2,0
1791600308.9811700,203,2,0
1791600309.0145900,203,3,0
1791600309.0478400,203,3,0
1791600309.081450,203,3,0
1791600309.114010,203,3,0
1791600309.1480200,201,3,0
1791600309.180970,199,2,0
1791600309.2147300,199,2,0
1791600309.248100,199,2,0
1791600309.281580,200,3,0
1791600309.314720,200,2,0
1791600309.3479700,200,2,0
1791600309.3817300,200,2,0
1791600309.413790,200,3,0
1791600309.447500,200,2,0
1791600309.481340,201,3,0
1791600309.51514,201,3,0
1791600309.548350,203,3,0
1791600309.580900,203,3,0
1791600309.614080,203,3,0
1791600309.647900,203,3,0
1791600309.6813100,205,3,0
1791600309.714540,205,3,0
1791600309.74757,206,3,0
1791600309.78106,206,3,0
1791600309.813700,206,3,0
1791600309.847400,206,4,0
1791600309.8812800,205,3,0
1791600309.914020,204,3,0
1791600309.9469800,204,3,0
1791600309.981660,204,3,0
1791600310.014970,204,3,0
1791600310.047930,205,3,0
1791600310.081320,205,3,0
1791600310.116040,205,3,0
1791600310.1521900,206,3,0
1791600310.181240,206,3,0
1791600310.213670,207,3,0
1791600310.247800,207,3,0
1791600310.281470,208,3,0
1791600310.314710,207,3,0
1791600310.3473900,208,3,0
1791600310.381630,208,3,0
1791600310.4142200,202,2,0
1791600310.4475500,201,2,0
1791600310.4813400,201,2,0
1791600310.5142900,202,3,0
1791600310.547430,203,3,0
1791600310.5805800,203,3,0
1791600310.614870,203,3,0
1791600310.647340,202,3,0
1791600310.681240,201,2,0
1791600310.714460,200,2,0
1791600310.747630,200,2,1
1791600310.780970,201,2,0
1791600310.814530,201,2,0
1791600310.8475100,202,3,0
1791600310.880470,205,4,0
1791600310.913790,205,4,0
1791600310.947800,205,4,0
1791600310.9810500,205,3,0
1791600311.0144600,205,3,0
1791600311.0472500,205,3,0
1791600311.080760,205,3,0
1791600311.114250,205,3,0
1791600311.148190,205,3,0
1791600311.18091,205,3,0
1791600311.214280,205,3,0
1791600311.24727,205,3,0
1791600311.2811000,205,3,0
1791600311.314310,205,3,0
1791600311.3473200,205,3,0
1791600311.380690,205,3,0
1791600311.414510,204,4,0
1791600311.4478100,203,3,0
1791600311.480590,202,3,1
1791600311.51436,202,3,1
1791600311.547120,202,2,0
1791600311.5806000,202,2,1
1791600311.6141300,202,2,0
1791600311.64753,203,2,0
1791600311.680930,203,2,0
1791600311.713990,203,2,0
1791600311.747400,203,2,1
1791600311.7811800,202,2,0
1791600311.813950,202,2,1
1791600311.847680,203,2,0
1791600311.880840,203,2,1
1791600311.913800,203,2,1
1791600311.947710,204,2,1
1791600311.9805700,204,3,1
1791600312.013690,204,3,1
1791600312.047310,204,3,1
1791600312.080660,204,3,1
1791600312.114310,202,2,0
1791600312.147420,200,1,1
1791600312.18067,199,1,0
1791600312.214420,199,1,0
1791600312.247610,199,1,0
1791600312.280750,199,1,1
1791600312.3132700,199,1,1
1791600312.3477500,200,1,1
1791600312.3808400,200,1,1
1791600312.413620,201,1,1
1791600312.446640,201,1,1
1791600312.481200,201,1,1
1791600312.514250,201,1,1
1791600312.547750,202,1,1
1791600312.5806600,202,1,1
1791600312.614550,203,1,1
1791600312.647180,203,1,1
1791600312.680490,204,1,1
1791600312.714180,204,1,1
1791600312.747300,205,1,1
1791600312.781160,205,1,1
1791600312.814040,205,1,1
1791600312.84619,205,2,1
1791600312.880380,207,1,1
1791600312.9141900,205,1,1
1791600312.947710,204,1,1
1791600312.980770,203,1,1
1791600313.0143400,202,1,1
1791600313.046870,202,1,1
1791600313.0807800,202,1,1
1791600313.113930,203,1,1
1791600313.147580,203,1,1
1791600313.1798600,204,1,1
1791600313.2140200,204,1,1
1791600313.247350,204,1,1
1791600313.280950,205,1,1
1791600313.313870,205,1,1
1791600313.347980,205,1,1
1791600313.3807800,205,1,1
1791600313.414280,205,1,1
1791600313.446950,205,1,1
1791600313.480740,205,1,1
1791600313.513930,206,1,1
1791600313.5479900,206,2,1
1791600313.580610,207,2,1
1791600313.614070,207,2,1
1791600313.64753,207,2,0
1791600313.68065,207,2,1
1791600313.713450,206,2,1
1791600313.7471300,205,1,1
1791600313.780650,203,1,1
1791600313.813700,203,2,1
1791600313.847660,203,1,1
1791600313.880900,203,1,1
1791600313.913650,203,1,1
1791600313.947330,203,1,1
1791600313.9809100,203,1,1
1791600314.014410,204,1,1
1791600314.047850,204,1,1
1791600314.0808200,205,1,1
1791600314.11409,204,1,0
1791600314.1473500,204,1,1
1791600314.181080,205,1,0
1791600314.214320,205,1,1
1791600314.247680,204,1,1
1791600314.281110,205,1,1
1791600314.314040,205,1,1
1791600314.347610,205,1,1
1791600314.381290,205,2,1
1791600314.413660,205,2,1
1791600314.447660,205,2,1
1791600314.480340,205,2,1
1791600314.5141000,204,2,1
1791600314.547740,203,1,1
1791600314.58034,202,1,1
1791600314.613910,203,1,1
1791600314.6476300,203,1,1
1791600314.6808900,203,1,1
1791600314.713630,203,1,1
1791600314.746480,203,1,1
1791600314.780740,203,1,1
1791600314.814340,204,1,0
1791600314.847860,203,1,0
1791600314.88153,204,1,1
1791600314.913990,204,1,0
1791600314.947670,204,1,0
1791600314.981050,204,1,1
1791600315.014280,204,2,1
1791600315.047480,205,2,1
1791600315.080260,204,2,1
1791600315.114250,205,2,0
1791600315.146660,204,1,0
1791600315.180820,205,1,1
1791600315.2142300,204,2,0
1791600315.247240,203,1,1
1791600315.280820,201,1,1
1791600315.314310,202,1,1
1791600315.347490,202,1,1
1791600315.380840,202,1,1
1791600315.4139600,202,1,1
1791600315.447410,202,1,1
1791600315.480800,203,1,1
1791600315.514150,203,1,1
1791600315.547290,203,1,1
1791600315.580930,204,1,1
1791600315.613940,204,1,1
1791600315.647400,204,1,1
1791600315.6811800,204,1,0
1791600315.714360,204,1,1
1791600315.747280,204,1,1
1791600315.780780,204,1,0
1791600315.8142800,204,1,1
1791600315.8475000,205,2,0
1791600315.881320,205,2,0
1791600315.9141500,205,1,1
1791600315.94738,204,2,0
1791600315.980500,203,1,1
1791600316.013930,202,1,1
1791600316.047460,201,1,1
1791600316.080800,202,1,1
1791600316.114250,202,1,1
1791600316.1471300,202,1,1
1791600316.180810,202,1,1
1791600316.214360,202,1,1
1791600316.24738,203,1,1
1791600316.2806800,202,1,1
1791600316.313670,202,1,0
1791600316.3477700,203,1,1
1791600316.3804200,203,1,0
1791600316.414330,203,1,1
1791600316.4480200,204,1,1
1791600316.480780,204,1,1
1791600316.514210,204,1,1
1791600316.5472000,204,1,0
1791600316.580660,204,1,1
1791600316.614210,205,1,1
1791600316.6473600,204,1,1
1791600316.680910,204,1,1
1791600316.714340,202,1,1
1791600316.7470800,202,1,1
1791600316.780560,202,1,1
1791600316.814220,202,1,1
1791600316.8471100,202,1,1
1791600316.880590,202,1,1
1791600316.914160,203,1,1
1791600316.9476700,203,1,1
1791600316.9806000,203,1,1
1791600317.014290,203,1,1
1791600317.0475100,203,1,1
1791600317.080610,203,1,1
1791600317.113900,204,1,1
1791600317.147520,204,1,1
1791600317.180630,204,1,1
1791600317.213990,204,1,1
1791600317.247470,204,1,1
1791600317.28014,204,1,1
1791600317.3141500,204,1,1
1791600317.3471300,204,1,1
1791600317.3807100,204,1,1
1791600317.413860,204,1,2
1791600317.447500,202,1,1
1791600317.480550,202,1,1
1791600317.514350,202,1,1
1791600317.547890,203,1,1
1791600317.5806300,203,1,1
1791600317.61465,202,1,1
1791600317.647560,203,1,1
1791600317.680290,203,1,1
1791600317.713790,203,1,1
1791600317.747600,203,1,1
1791600317.7807400,203,1,1
1791600317.813700,203,1,1
1791600317.847530,204,1,1
1791600317.8808700,204,0,1
1791600317.914210,204,1,1
1791600317.9474300,205,1,1
1791600317.98028,204,1,1
1791600318.013660,204,1,1
1791600318.047160,205,1,1
1791600318.080720,205,1,1
1791600318.113390,205,1,1
1791600318.14777,205,1,1
1791600318.180440,203,1,1
1791600318.214100,202,1,1
1791600318.24775,202,1,1
1791600318.280790,203,1,2
1791600318.31361,203,1,1
1791600318.3479100,203,1,1
1791600318.3806300,203,1,1
1791600318.413910,203,1,1
1791600318.447930,203,1,1
1791600318.480900,203,1,1
1791600318.513880,203,1,1
1791600318.5475600,204,1,1
1791600318.5803800,204,1,1
1791600318.613920,204,1,1
1791600318.6473000,204,1,1
1791600318.6806800,204,1,0
1791600318.7131200,204,1,1
1791600318.7477800,204,1,1
1791600318.781170,204,1,1
1791600318.813630,204,1,1
1791600318.847680,204,1,1
1791600318.880440,204,1,1
1791600318.913890,204,1,1
1791600318.947400,203,1,1
1791600318.980900,202,1,1
1791600319.013780,202,0,2
1791600319.046920,202,0,2
1791600319.0806100,202,1,1
1791600319.1140100,202,1,1
1791600319.146820,203,0,1
1791600319.1803000,203,1,1
1791600319.213770,203,1,2
1791600319.2475500,203,1,2
1791600319.2806500,203,1,1
1791600319.3139600,203,1,1
1791600319.346760,203,1,1
1791600319.380800,203,0,1
1791600319.41431,203,0,1
1791600319.447140,204,1,1
1791600319.480690,204,0,1
1791600319.513920,204,1,1
1791600319.547330,204,0,1
1791600319.580770,204,1,0
1791600319.613760,204,1,1
1791600319.6474600,204,0,1
1791600319.681140,204,0,1
1791600319.713900,202,0,0
1791600319.747130,201,0,1
1791600319.7803900,201,0,1
1791600319.813710,202,1,1
1791600319.84748,202,1,1
1791600319.880560,202,0,1
1791600319.913770,202,1,1
1791600319.9474900,203,1,1
1791600319.9808700,203,1,1
1791600320.014520,203,1,1
1791600320.047790,203,1,1
1791600320.080760,203,1,1
1791600320.113850,203,1,1
1791600320.147590,203,1,1
1791600320.180700,204,1,1
1791600320.2141300,204,1,1
1791600320.246720,204,1,0
1791600320.2811900,204,1,1
1791600320.313860,205,1,0
1791600320.347020,205,1,1
1791600320.380360,205,1,0
1791600320.414010,205,1,0
1791600320.447040,205,1,0
1791600320.480920,205,1,1
1791600320.5136100,205,2,1
1791600320.547580,205,1,1
1791600320.580720,205,1,1
1791600320.614110,204,2,1
1791600320.647190,202,1,1
1791600320.680190,202,1,1
1791600320.714600,202,1,1
1791600320.745570,202,1,0
1791600320.7812700,202,1,0
1791600320.814320,203,1,0
1791600320.8469400,202,1,1
1791600320.880190,203,1,1
1791600320.913700,203,1,1
1791600320.9474400,203,1,1
1791600320.980890,203,1,1
1791600321.014240,203,1,1
1791600321.047790,203,2,1
1791600321.080710,203,1,1
1791600321.114660,203,2,1
1791600321.146830,204,1,1
1791600321.180570,204,2,1
1791600321.214220,204,1,1
1791600321.2471800,204,2,0
1791600321.2806800,205,2,1
1791600321.313950,205,2,1
1791600321.347740,205,2,1
1791600321.380940,205,1,1
1791600321.4140200,205,2,0
1791600321.447230,204,2,1
1791600321.4802800,203,2,0
1791600321.514400,202,2,1
1791600321.5475400,202,2,1
1791600321.580680,202,2,1
1791600321.613940,203,1,1
1791600321.647400,203,1,0
1791600321.680720,203,1,0
1791600321.7141600,203,1,1
1791600321.747180,203,2,1
1791600321.7808100,203,2,1
1791600321.813870,203,2,1
1791600321.847400,204,2,0
1791600321.880590,203,2,1
1791600321.913550,204,2,0
1791600321.9473900,204,1,1
1791600321.980140,204,2,0
1791600322.0144500,204,2,0
1791600322.047100,205,2,1
1791600322.081030,205,2,1
1791600322.113820,205,2,1
1791600322.1471200,205,2,1
1791600322.180620,204,2,0
1791600322.214130,204,3,0
1791600322.247130,205,3,0
1791600322.2804300,205,2,0
1791600322.314170,205,3,0
1791600322.3474500,203,2,1
1791600322.380680,202,2,0
1791600322.413860,202,2,1
1791600322.4474200,202,2,0
1791600322.4804300,202,2,0
1791600322.513920,203,2,1
1791600322.547120,203,2,1
1791600322.580500,204,2,1
1791600322.614260,203,2,1
1791600322.647430,204,2,1
1791600322.6817600,203,2,0
1791600322.71497,203,2,1
1791600322.747880,204,2,0
1791600322.78023,204,2,0
1791600322.81342,204,2,0
1791600322.847280,204,2,0
1791600322.880460,204,2,1
1791600322.9142200,205,3,1
1791600322.9477700,205,3,0
1791600322.980940,205,2,0
1791600323.0140400,205,3,0
1791600323.047230,205,3,0
1791600323.081080,205,2,1
1791600323.114200,205,2,0
1791600323.147570,205,2,0
1791600323.180570,203,2,1
1791600323.2137600,202,2,0
1791600323.247300,201,2,0
1791600323.2804900,202,2,0
1791600323.313630,202,1,0
1791600323.34757,202,2,1
1791600323.380880,202,2,0
1791600323.413800,202,2,0
1791600323.4475900,202,2,0
1791600323.4808800,203,2,0
1791600323.514060,202,1,0
1791600323.54742,203,2,0
1791600323.5804500,202,2,0
1791600323.613720,203,1,0
1791600323.647400,203,2,1
1791600323.680800,203,2,1
1791600323.7141600,204,1,1
1791600323.746990,204,2,0
1791600323.78052,205,2,0
1791600323.814200,204,2,0
1791600323.846910,205,2,0
1791600323.880120,205,2,1
1791600323.9136800,204,2,0
1791600323.947740,202,2,0
1791600323.980420,201,2,1
1791600324.0140000,201,2,0
1791600324.047620,201,1,0
1791600324.0803600,202,2,1
1791600324.11395,201,1,1
1791600324.147580,202,1,1
1791600324.180610,202,1,1
1791600324.213850,202,1,0
1791600324.247020,202,1,1
1791600324.281000,202,1,1
1791600324.3136800,203,1,1
1791600324.347520,203,1,1
1791600324.379990,203,1,0
1791600324.4137200,203,2,1
1791600324.446710,203,2,1
1791600324.4805000,203,2,1
1791600324.513930,203,2,1
1791600324.547330,204,2,0
1791600324.580530,204,2,0
1791600324.613660,204,2,1
1791600324.6468900,204,2,0
1791600324.680060,204,2,0
1791600324.7144100,202,2,0
1791600324.747460,201,1,1
1791600324.780110,201,1,1
1791600324.8139200,201,2,1
1791600324.846860,201,1,1
1791600324.8808400,201,1,1
1791600324.913560,202,1,1
1791600324.9476,202,1,1
1791600324.980770,202,1,1
1791600325.013940,202,1,1
1791600325.046790,202,1,1
1791600325.080400,202,1,1
1791600325.113930,202,1,0
1791600325.147150,202,2,0
1791600325.180420,203,1,0
1791600325.214050,203,2,0
1791600325.247280,203,1,1
1791600325.281360,203,2,0
1791600325.3138400,203,2,1
1791600325.34722,203,2,0
1791600325.380300,203,2,1
1791600325.414080,204,2,0
1791600325.44714,202,1,1
1791600325.48062,201,1,1
1791600325.51412,201,1,1
1791600325.547370,201,1,1
1791600325.580470,201,1,1
1791600325.613980,201,1,1
1791600325.6468300,201,1,1
1791600325.680100,202,1,1
1791600325.7140200,202,1,1
1791600325.746950,202,1,1
1791600325.7808200,202,1,1
1791600325.8142500,202,1,1
1791600325.847220,202,1,0
1791600325.880900,203,1,1
1791600325.914560,203,1,1
1791600325.947450,202,1,1
1791600325.979880,202,1,1
1791600326.01339,203,1,1
1791600326.046830,203,1,1
1791600326.080270,204,1,1
1791600326.113330,204,1,1
1791600326.1471300,203,1,1
1791600326.1800600,202,1,1
1791600326.213590,201,1,1
1791600326.247130,201,1,1
1791600326.2802100,201,1,1
1791600326.3135100,201,1,1
1791600326.347400,201,1,1
1791600326.3803700,202,1,1
1791600326.4141800,203,1,1
1791600326.4471000,203,1,1
1791600326.480080,202,1,1
1791600326.514040,203,1,1
1791600326.5470300,203,1,1
1791600326.580580,203,1,1
1791600326.6138900,203,1,1
1791600326.647270,204,1,1
1791600326.6805700,204,2,1
1791600326.7138700,205,2,1
1791600326.747400,205,2,1
1791600326.780380,205,2,1
1791600326.813760,205,2,1
1791600326.846940,206,2,0
1791600326.8808,205,2,1
1791600326.914250,205,2,0
1791600326.947500,205,2,0
1791600326.980740,203,2,1
1791600327.0139600,202,2,1
1791600327.047180,202,1,1
1791600327.080250,202,1,1
1791600327.114180,202,2,1
1791600327.147120,202,1,1
1791600327.1806900,202,1,2
1791600327.214330,202,1,1
1791600327.2474900,202,1,1
1791600327.280130,202,1,1
1791600327.3140700,202,1,1
1791600327.347300,202,1,1
1791600327.3806800,202,1,1
1791600327.4132800,203,1,1
1791600327.447180,203,1,1
1791600327.48049,203,1,1
1791600327.513970,204,1,1
1791600327.547540,204,1,0
1791600327.579990,204,1,1
1791600327.6142700,204,2,0
1791600327.647470,204,1,1
1791600327.680190,204,2,1
1791600327.7142000,204,2,1
1791600327.747590,204,2,2
1791600327.780490,205,2,1
1791600327.813740,205,2,1
1791600327.846880,204,2,1
1791600327.880710,205,2,1
1791600327.913690,205,2,1
1791600327.9477800,205,2,1
1791600327.980390,203,2,1
1791600328.014180,202,2,1
1791600328.047520,202,1,1
1791600328.080470,201,1,1
1791600328.11373,201,1,1
1791600328.1472200,202,1,1
1791600328.1806100,201,1,1
1791600328.213450,201,1,1
1791600328.247400,201,1,1
1791600328.2809900,202,1,1
1791600328.3139100,202,1,1
1791600328.347440,202,1,1
1791600328.380640,202,1,1
1791600328.413930,202,1,1
1791600328.447610,202,1,1
1791600328.4801100,203,1,1
1791600328.513880,203,1,1
1791600328.547400,203,1,1
1791600328.5804300,203,1,1
1791600328.6139700,204,1,1
1791600328.6473300,203,1,0
1791600328.680360,204,1,1
1791600328.713770,204,1,1
1791600328.747010,204,1,1
1791600328.780620,205,1,1
1791600328.8137200,205,2,1
1791600328.847270,205,2,1
1791600328.880760,203,1,1
1791600328.913640,202,1,1
1791600328.9477300,201,1,1
1791600328.9804500,202,1,1
1791600329.014020,202,1,1
1791600329.046960,202,1,1
1791600329.080110,202,1,1
1791600329.113530,202,1,1
1791600329.146710,202,1,1
1791600329.180480,202,1,1
1791600329.2140800,202,1,0
1791600329.247420,202,1,0
1791600329.281210,202,1,1
1791600329.313940,202,1,1
1791600329.3465700,202,1,1
1791600329.3807,203,1,1
1791600329.413760,203,1,1
1791600329.447390,203,1,1
1791600329.480520,204,1,1
1791600329.513280,204,1,1
1791600329.547790,204,1,0
1791600329.580330,204,1,1
1791600329.614400,205,1,1
1791600329.647160,205,1,1
1791600329.680660,205,1,1
1791600329.7131400,204,2,1
1791600329.746770,202,1,1
1791600329.780380,201,1,1
1791600329.8135900,201,1,1
1791600329.847170,201,1,1
1791600329.881110,201,1,1
1791600329.913820,202,1,1
1791600329.946980,202,1,1
1791600329.980830,202,1,1
1791600330.0136900,202,1,1
1791600330.0470700,202,1,1
1791600330.080790,202,1,1
1791600330.11375,202,1,1
1791600330.1473900,203,1,1
1791600330.180590,203,1,1
1791600330.2136100,203,1,1
1791600330.2485000,203,1,1
1791600330.279580,203,1,1
1791600330.313440,204,1,1
1791600330.347250,204,1,1
1791600330.379460,205,1,0
1791600330.413950,205,1,0
1791600330.447890,205,2,0
1791600330.48084,205,1,1
1791600330.514180,205,1,1
1791600330.547720,205,1,1
1791600330.580900,205,2,1
1791600330.6137500,205,2,1
1791600330.646470,205,2,0
1791600330.680250,203,1,1
1791600330.713950,202,1,1
1791600330.746860,201,1,1
1791600330.78054,201,1,1
1791600330.813990,201,1,1
1791600330.847240,201,1,1
1791600330.880840,201,1,1
1791600330.913600,201,1,1
1791600330.947190,202,1,1
1791600330.9805300,202,1,1
1791600331.014160,202,1,1
1791600331.046990,202,1,1
1791600331.080480,202,1,1
1791600331.113640,202,1,1
1791600331.1469100,202,1,0
1791600331.180460,203,1,1
1791600331.213780,203,1,0
1791600331.247330,203,1,1
1791600331.28051,204,1,1
1791600331.313140,204,1,1
1791600331.347200,204,1,1
1791600331.380650,204,1,1
1791600331.413590,205,1,1
1791600331.447190,205,1,1
1791600331.480760,204,1,1
1791600331.5132800,203,1,1
1791600331.5468900,202,1,1
1791600331.5803200,201,1,1
1791600331.614210,201,1,1
1791600331.647240,201,1,1
1791600331.680450,201,1,1
1791600331.714000,201,1,1
1791600331.7471700,201,1,1
1791600331.781460,201,1,1
1791600331.814240,201,1,1
1791600331.847010,201,1,1
1791600331.880590,202,1,1
1791600331.914040,202,0,1
1791600331.947620,202,0,1
1791600331.9805200,202,1,1
1791600332.013660,202,1,1
1791600332.047080,203,1,1
1791600332.080430,203,1,1
1791600332.1138400,203,1,1
1791600332.146900,203,1,1
1791600332.1802900,203,1,1
1791600332.213730,204,1,1
1791600332.24733,204,1,1
1791600332.280960,202,1,1
1791600332.318550,201,1,1
1791600332.347160,201,1,1
1791600332.3808000,200,1,1
1791600332.4141900,200,1,1
1791600332.447210,201,1,1
1791600332.480270,201,1,1
1791600332.513860,201,1,1
1791600332.5469300,201,1,1
1791600332.580450,201,0,1
1791600332.614540,202,1,1
1791600332.645590,202,0,1
1791600332.6784800,202,0,1
1791600332.7118500,202,1,1
1791600332.7455100,203,1,1
1791600332.778530,202,1,1
1791600332.8119100,203,1,2
1791600332.847620,203,1,1
1791600332.88055,203,1,1
1791600332.913610,203,1,1
1791600332.946820,203,1,1
1791600332.980500,204,1,1
1791600333.0140400,204,1,1
1791600333.047210,204,1,1
1791600333.0802900,203,1,1
1791600333.114010,201,1,1
1791600333.146880,201,1,1
1791600333.1803800,201,1,1
1791600333.214040,201,1,1
1791600333.252620,201,1,1
1791600333.280800,200,1,1
1791600333.3139100,200,1,1
1791600333.3469300,201,1,1
1791600333.380280,201,1,2
1791600333.4138300,201,1,1
1791600333.447240,201,1,1
1791600333.4802700,202,1,1
1791600333.513810,202,1,1
1791600333.547650,202,0,1
1791600333.579870,203,1,1
1791600333.613890,203,1,1
1791600333.6470500,202,1,1
1791600333.680360,203,1,1
1791600333.7139900,203,1,1
1791600333.746870,203,1,1
1791600333.780550,203,1,1
1791600333.814080,203,1,1
1791600333.847240,203,1,1
1791600333.8808300,203,1,1
1791600333.913370,202,0,1
1791600333.9471100,200,1,1
1791600333.980490,200,0,1
1791600334.013600,200,0,1
1791600334.0475000,200,0,1
1791600334.080630,201,0,1
1791600334.1131200,200,1,1
1791600334.147310,201,1,1
1791600334.180550,201,1,1
1791600334.213960,201,1,1
1791600334.247400,202,1,1
1791600334.280310,201,0,1
1791600334.3123000,201,1,1
1791600334.346110,202,1,2
1791600334.378660,202,1,1
1791600334.412560,203,1,1
1791600334.448040,203,1,2
1791600334.480230,203,1,1
1791600334.5140100,203,1,1
1791600334.547370,203,1,1
1791600334.580630,203,1,0
1791600334.613340,204,1,1
1791600334.6474,203,1,1
1791600334.68044,202,0,1
1791600334.713710,201,0,1
1791600334.746820,200,0,1
1791600334.780660,201,1,1
1791600334.813890,201,1,1
1791600334.847040,201,0,1
1791600334.880410,201,0,1
1791600334.91354,201,1,1
1791600334.948060,202,1,1
1791600334.98104,202,1,1
1791600335.0138400,201,1,1
1791600335.0470600,201,1,1
1791600335.079930,201,1,1
1791600335.1138600,203,1,1
1791600335.147140,203,1,1
1791600335.180570,203,1,1
1791600335.2141600,203,1,1
1791600335.246710,204,1,1
1791600335.28098,204,1,1
1791600335.313670,203,1,1
1791600335.346460,203,1,0
1791600335.380400,204,1,0
1791600335.4132400,204,1,1
1791600335.44717,202,1,1
1791600335.480420,201,1,0
1791600335.513700,200,1,1
1791600335.5469200,200,1,1
1791600335.580230,200,1,1
1791600335.614020,201,1,1
1791600335.647020,201,1,1
1791600335.680780,201,0,1
1791600335.7137800,201,1,1
1791600335.74711,201,1,1
1791600335.780350,201,0,1
1791600335.813920,201,1,1
1791600335.847090,202,1,1
1791600335.880480,202,1,1
1791600335.913780,203,1,1
1791600335.9469600,203,1,1
1791600335.980770,203,1,1
1791600336.0134600,204,1,1
1791600336.047340,204,1,1
1791600336.0804500,204,1,0
1791600336.113570,204,1,1
1791600336.146870,204,1,1
1791600336.180270,205,1,1
1791600336.2138700,204,1,0
1791600336.2478900,202,1,1
1791600336.2805600,201,1,1
1791600336.313350,200,1,1
1791600336.347310,200,1,1
1791600336.3715400,201,1,0
1791600336.406980,201,1,1
1791600336.4379200,201,1,1
1791600336.4694000,202,1,1
1791600336.5044000,202,1,1
1791600336.536050,203,1,1
1791600336.5722200,203,1,1
1791600336.6069300,203,1,1
1791600336.645960,203,1,1
1791600336.679620,203,1,1
1791600336.712790,204,1,1
1791600336.7452500,204,1,1
1791600336.779830,204,1,0
1791600336.8123800,204,1,0
1791600336.844930,204,1,1
1791600336.8810800,205,1,0
1791600336.911760,205,1,0
1791600336.946540,205,2,0
1791600336.980570,206,1,0
1791600337.0137200,206,2,0
1791600337.045190,205,2,0
1791600337.079820,203,2,0
1791600337.11392,202,1,1
1791600337.147380,202,1,1
1791600337.180490,202,1,1
1791600337.213660,202,1,1
1791600337.247140,203,1,0
1791600337.280450,203,1,1
1791600337.3131800,203,1,0
1791600337.346840,203,2,1
1791600337.380410,203,1,1
1791600337.4138500,203,2,0
1791600337.4469600,203,1,0
1791600337.4800500,203,1,1
1791600337.513820,203,1,1
1791600337.54747,204,1,0
1791600337.579750,204,2,0
1791600337.614070,205,2,0
1791600337.646940,205,2,0
1791600337.679960,205,2,0
1791600337.713680,205,1,0
1791600337.746750,205,2,0
1791600337.7801800,205,2,0
1791600337.813720,205,2,0
1791600337.847120,203,1,0
1791600337.880530,202,1,0
1791600337.9135500,201,1,0
1791600337.9469800,201,1,0
1791600337.980220,201,1,1
1791600338.0134700,201,1,1
1791600338.047140,201,1,1
1791600338.0802500,202,1,0
1791600338.113810,202,1,0
1791600338.146750,202,1,0
1791600338.180130,202,1,0
1791600338.213160,202,1,0
1791600338.246990,202,1,0
1791600338.280500,203,2,0
1791600338.313610,203,1,0
1791600338.347360,203,2,1
1791600338.379630,204,2,0
1791600338.413350,204,2,0
1791600338.447650,205,2,0
1791600338.480280,204,2,1
1791600338.513380,205,2,0
1791600338.547150,205,2,0
1791600338.580140,206,2,0
1791600338.6142600,205,2,0
1791600338.6470200,205,2,0
1791600338.680500,203,2,0
1791600338.714040,201,2,0
1791600338.746630,201,1,0
1791600338.780480,201,1,1
1791600338.813290,201,1,1
1791600338.847250,201,2,0
1791600338.880360,201,2,0
1791600338.913210,202,2,0
1791600338.9470100,202,2,0
1791600338.979990,202,2,0
1791600339.013790,202,2,0
1791600339.047150,202,2,0
1791600339.080220,203,2,0
1791600339.1136800,203,2,0
1791600339.147140,203,2,0
1791600339.180310,204,2,0
1791600339.213860,204,3,0
1791600339.2473300,207,4,0
1791600339.280510,209,5,0
1791600339.3135700,211,6,0
1791600339.346950,210,6,0
1791600339.380490,210,6,0
1791600339.4135400,210,6,0
1791600339.4466800,210,6,0
1791600339.48,209,6,0
1791600339.513570,206,6,0
1791600339.5467900,203,5,0
1791600339.579890,202,4,0
1791600339.6133200,202,4,0
1791600339.647250,202,4,0
1791600339.680100,202,4,1
1791600339.713580,202,4,0
1791600339.746950,202,4,0
1791600339.780990,202,4,0
1791600339.8135400,202,4,0
1791600339.8468900,202,4,0
1791600339.88021,202,4,0
1791600339.913490,202,4,0
1791600339.947440,203,3,0
1791600339.980680,203,4,0
1791600340.013470,204,3,0
1791600340.046760,204,4,0
1791600340.07992,204,4,0
1791600340.113540,204,4,0
1791600340.146250,204,4,0
1791600340.1804700,205,4,0
1791600340.21329,205,4,0
1791600340.2467100,205,4,0
1791600340.279930,205,4,0
1791600340.313130,203,4,0
1791600340.3469200,201,4,1
1791600340.3798900,201,3,0
1791600340.413440,201,3,1
1791600340.446820,201,3,1
1791600340.480200,201,3,1
1791600340.513600,202,3,1
1791600340.546880,202,3,1
1791600340.5804300,203,3,0
1791600340.613610,202,3,0
1791600340.647020,203,3,0
1791600340.680360,203,3,0
1791600340.713420,203,3,0
1791600340.746710,203,4,0
1791600340.7801900,204,4,1
1791600340.813670,204,4,0
1791600340.846990,204,4,0
1791600340.8802900,204,4,0
1791600340.913410,205,4,0
1791600340.947390,205,4,0
1791600340.980580,205,4,0
1791600341.013610,206,4,0
1791600341.046940,204,4,0
1791600341.079750,202,4,1
1791600341.113220,201,4,0
1791600341.14661,201,3,1
1791600341.180060,201,3,1
1791600341.213860,201,3,1
1791600341.246890,201,3,0
1791600341.2800300,202,3,1
1791600341.3137,202,3,1
1791600341.3464800,203,3,1
1791600341.380260,203,3,0
1791600341.413910,203,3,1
1791600341.446870,202,4,0
1791600341.48052,203,4,0
1791600341.514120,204,4,0
1791600341.5468300,204,4,0
1791600341.580160,204,4,0
1791600341.613970,205,4,0
1791600341.647090,205,4,0
1791600341.680480,205,4,0
1791600341.7136800,205,4,0
1791600341.746510,205,5,0
1791600341.780750,205,5,0
1791600341.81388,203,4,0
1791600341.8469200,201,4,1
1791600341.8800600,200,3,1
1791600341.9134900,200,3,1
1791600341.947200,200,3,0
1791600341.979930,201,3,1
1791600342.01336,201,3,1
1791600342.046870,201,3,1
1791600342.07984,201,3,1
1791600342.113710,202,3,1
1791600342.146560,202,3,1
1791600342.1799600,202,3,1
1791600342.214060,202,3,1
1791600342.2468300,202,3,1
1791600342.280550,202,4,1
1791600342.313500,203,3,1
1791600342.346810,203,3,0
1791600342.3802300,204,4,0
1791600342.4135800,204,4,0
1791600342.447030,204,4,0
1791600342.47983,204,4,0
1791600342.513310,205,4,0
1791600342.546580,205,4,0
1791600342.579980,204,4,1
1791600342.613390,202,4,1
1791600342.6469600,200,3,1
1791600342.680430,200,3,0
1791600342.714130,200,3,0
1791600342.747150,200,3,1
1791600342.78023,200,3,1
1791600342.813470,200,3,1
1791600342.8470100,201,3,0
1791600342.8801800,201,3,1
1791600342.913640,201,3,1
1791600342.9471000,202,2,1
1791600342.979770,202,2,1
1791600343.013320,201,2,1
1791600343.0470600,201,3,1
1791600343.080070,202,3,1
1791600343.1137400,202,3,1
1791600343.147000,203,3,1
1791600343.1796600,203,3,1
1791600343.2134900,203,3,1
1791600343.247090,203,3,1
1791600343.279980,203,3,0
1791600343.313510,204,3,0
1791600343.347110,205,3,0
1791600343.380200,204,4,1
1791600343.414100,202,3,0
1791600343.446630,201,3,1
1791600343.479860,200,2,0
1791600343.5137000,200,2,1
1791600343.547260,200,2,0
1791600343.579920,200,2,0
1791600343.6137700,200,2,1
1791600343.646570,201,2,1
1791600343.679670,201,2,1
1791600343.713890,201,2,1
1791600343.747230,201,2,1
1791600343.7800600,201,2,1
1791600343.813180,201,2,1
1791600343.847030,202,2,1
1791600343.879970,202,2,1
1791600343.9133900,202,2,1
1791600343.947340,202,2,0
1791600343.980720,203,2,1
1791600344.0131400,203,2,1
1791600344.048220,203,3,2
1791600344.080280,203,2,1
1791600344.113350,204,2,1
1791600344.146910,204,3,1
1791600344.179740,204,3,1
1791600344.21318,202,2,1
1791600344.2469500,200,2,0
1791600344.280690,200,2,1
1791600344.313060,200,2,1
1791600344.346880,200,2,1
1791600344.3801900,200,2,1
1791600344.413420,200,2,1
1791600344.4468200,201,2,1
1791600344.4798200,201,2,1
1791600344.5129700,201,2,1
1791600344.546840,201,2,1
1791600344.580400,201,2,1
1791600344.613260,201,2,0
1791600344.6469100,201,2,1
1791600344.680160,201,2,1
1791600344.713840,202,2,1
1791600344.746570,202,2,1
1791600344.780500,202,2,1
1791600344.8134000,203,2,1
1791600344.846130,203,2,1
1791600344.8799100,203,2,1
1791600344.913830,203,2,1
1791600344.946780,203,2,1
1791600344.980380,203,2,1
1791600345.01372,204,3,1
1791600345.047300,203,2,1
1791600345.080000,201,2,0
1791600345.1136600,200,2,1
1791600345.1468700,199,2,1
1791600345.180360,199,1,1
1791600345.213510,199,2,1
1791600345.247090,199,2,1
1791600345.280520,199,2,1
1791600345.3132200,200,2,1
1791600345.3467200,200,1,1
1791600345.380860,200,1,1
1791600345.4135000,200,1,1
1791600345.4465000,201,1,1
1791600345.480260,201,1,1
1791600345.513500,201,2,1
1791600345.5464,202,1,1
1791600345.579970,202,2,1
1791600345.613550,202,2,1
1791600345.647010,203,1,1
1791600345.680010,203,1,1
1791600345.714070,203,2,1
1791600345.745220,203,2,1
1791600345.780550,204,2,1
1791600345.813920,203,2,1
1791600345.8466200,204,2,1
1791600345.880690,205,2,1
1791600345.913450,205,3,1
1791600345.947010,204,2,1
1791600345.980440,201,2,1
1791600346.013240,200,1,1
1791600346.046840,200,1,1
1791600346.0803800,200,1,1
1791600346.113190,200,1,1
1791600346.146930,200,1,1
1791600346.18013,201,1,1
1791600346.213730,201,1,1
1791600346.24655,201,1,1
1791600346.280810,201,1,1
1791600346.313140,201,2,2
1791600346.350330,201,1,2
1791600346.380600,201,1,1
1791600346.413630,202,1,1
1791600346.44681,202,1,1
1791600346.480220,203,2,1
1791600346.51362,203,2,1
1791600346.546800,203,2,1
1791600346.580110,203,2,1
1791600346.6130300,203,2,1
1791600346.6465500,203,2,1
1791600346.680050,204,2,1
1791600346.713770,204,2,1
1791600346.74666,203,2,1
1791600346.780060,201,1,1
1791600346.813180,200,1,1
1791600346.847400,200,1,1
1791600346.880020,200,1,1
1791600346.913650,200,1,1
1791600346.947100,200,1,1
1791600346.980120,201,1,1
1791600347.0137900,201,1,1
1791600347.047010,201,1,1
1791600347.080260,201,1,1
1791600347.112840,201,2,1
1791600347.146480,201,2,1
1791600347.179720,201,1,1
1791600347.213380,202,1,1
1791600347.246450,203,1,1
1791600347.280210,203,1,1
1791600347.313810,203,2,1
1791600347.347030,203,1,1
1791600347.380280,203,2,1
1791600347.413310,203,2,1
1791600347.446950,204,2,1
1791600347.480400,203,2,1
1791600347.513740,202,1,1
1791600347.546830,200,1,1
1791600347.580210,199,1,1
1791600347.61345,200,1,1
1791600347.6463400,200,1,1
1791600347.6802200,200,1,1
1791600347.713660,200,1,1
1791600347.745800,200,1,1
1791600347.78012,201,1,2
1791600347.813380,201,1,1
1791600347.8464300,201,1,1
1791600347.879660,201,1,1
1791600347.913740,201,1,1
1791600347.947280,202,1,1
1791600347.980140,202,1,1
1791600348.014240,202,1,1
1791600348.0470500,203,1,1
1791600348.08041,203,1,2
1791600348.113440,203,1,1
1791600348.1473000,203,1,1
1791600348.1800000,203,1,1
1791600348.2138100,201,2,1
1791600348.2469700,199,1,1
1791600348.2802000,200,1,1
1791600348.31329,199,1,1
1791600348.3464600,199,1,1
1791600348.3804600,199,1,1
1791600348.413030,200,1,1
1791600348.446670,200,1,1
1791600348.480160,201,1,2
1791600348.513610,201,1,1
1791600348.547330,201,1,1
1791600348.58032,201,1,1
1791600348.613650,201,1,1
1791600348.646980,201,1,1
1791600348.6801500,201,1,1
1791600348.71363,202,1,1
1791600348.746980,202,1,2
1791600348.780030,203,1,2
1791600348.8135100,203,1,1
1791600348.8469500,203,1,1
1791600348.879880,201,1,1
1791600348.91321,200,1,1
1791600348.946740,199,1,1
1791600348.9801200,199,1,1
1791600349.01375,199,1,1
1791600349.0470400,199,1,1
1791600349.079810,199,1,1
1791600349.113600,200,0,1
1791600349.146570,201,1,1
1791600349.1800700,201,1,1
1791600349.213660,201,1,2
1791600349.246720,201,1,1
1791600349.28019,201,1,1
1791600349.313150,201,1,2
1791600349.347230,201,1,1
1791600349.380380,202,1,1
1791600349.4132500,203,1,2
1791600349.447040,203,1,1
1791600349.4801500,203,1,1
1791600349.513520,203,1,1
1791600349.546680,203,1,1
1791600349.580610,203,1,1
1791600349.612990,202,1,1
1791600349.646610,200,1,1
1791600349.679920,199,1,1
1791600349.713360,199,1,1
1791600349.746370,200,0,1
1791600349.7799500,200,0,1
1791600349.813550,200,0,1
1791600349.8470600,200,0,1
1791600349.8802500,201,0,1
1791600349.913670,201,0,1
1791600349.947190,201,1,1
1791600349.980390,201,1,1
1791600350.013730,201,1,1
1791600350.0467200,201,1,1
1791600350.0799000,201,1,2
1791600350.113510,202,1,1
1791600350.146740,202,1,2
1791600350.180080,203,1,2
1791600350.213270,203,1,1
1791600350.2471100,203,1,1
1791600350.2801200,203,1,1
1791600350.313280,204,1,1
1791600350.346830,203,1,1
1791600350.380330,201,1,1
1791600350.413310,200,1,1
1791600350.446870,200,1,2
1791600350.4806900,200,1,1
1791600350.513590,200,1,2
1791600350.546760,200,0,1
1791600350.5802200,200,0,2
1791600350.613050,200,1,1
1791600350.646880,201,1,1
1791600350.680260,201,1,2
1791600350.7135000,201,1,2
1791600350.746870,201,1,1
1791600350.780410,201,1,1
1791600350.813200,201,1,2
1791600350.846690,202,1,1
1791600350.8799900,202,1,1
1791600350.913480,203,1,1
1791600350.946630,203,1,2
1791600350.9801900,203,1,1
1791600351.0133500,203,1,1
1791600351.046710,204,1,1
1791600351.080300,204,1,1
1791600351.113900,204,1,1
1791600351.1470100,205,1,1
1791600351.180600,205,2,1
1791600351.21329,205,2,1
1791600351.2471600,205,1,1
1791600351.2806700,205,2,1
1791600351.313560,206,2,1
1791600351.3463500,206,2,1
1791600351.379840,203,2,1
1791600351.4134700,201,2,1
1791600351.447050,200,1,1
1791600351.4795300,201,1,1
1791600351.513050,201,1,1
1791600351.547020,201,1,1
1791600351.5796800,201,1,1
1791600351.6132800,201,1,1
1791600351.646340,201,1,2
1791600351.679960,201,1,2
1791600351.713700,201,1,1
1791600351.746830,201,1,1
1791600351.780170,201,1,1
1791600351.813570,202,1,1
1791600351.8464300,202,1,1
1791600351.8782400,203,1,1
1791600351.9115900,203,1,1
1791600351.944790,203,1,1
1791600351.980290,203,1,1
1791600352.013210,204,1,1
1791600352.04643,204,1,1
1791600352.080040,204,1,1
1791600352.113390,204,1,1
1791600352.146840,205,1,1
1791600352.180060,205,1,1
1791600352.213530,205,2,0
1791600352.2463700,205,2,1
1791600352.280260,205,2,1
1791600352.313620,204,2,1
1791600352.346580,201,2,1
1791600352.380300,200,1,1
1791600352.413520,200,1,1
1791600352.446930,200,1,1
1791600352.4801500,201,1,1
1791600352.513560,201,1,1
1791600352.546670,201,1,1
1791600352.579600,201,1,1
1791600352.613550,201,1,1
1791600352.64649,201,1,1
1791600352.680170,201,1,1
1791600352.7135700,201,1,1
1791600352.746460,201,1,1
1791600352.780090,202,1,1
1791600352.813880,203,1,1
1791600352.84639,203,1,1
1791600352.8790900,203,1,1
1791600352.91354,203,1,1
1791600352.9469700,203,1,1
1791600352.9796500,204,1,1
1791600353.01383,204,1,2
1791600353.046760,204,1,1
1791600353.079580,205,2,1
1791600353.113330,204,2,1
1791600353.146920,202,1,1
1791600353.180010,200,1,1
1791600353.213440,200,1,2
1791600353.246570,201,1,1
1791600353.280070,201,1,1
1791600353.313580,201,1,1
1791600353.3466700,201,1,1
1791600353.3799900,201,1,1
1791600353.4135200,202,1,1
1791600353.446860,202,1,1
1791600353.479700,202,1,1
1791600353.513610,202,1,1
1791600353.546920,202,1,1
1791600353.579940,202,1,1
1791600353.6132800,203,1,1
1791600353.646920,203,1,1
1791600353.680380,203,1,1
1791600353.7132600,203,1,1
1791600353.74689,203,1,1
1791600353.7803600,204,1,1
1791600353.813510,204,2,1
1791600353.84709,204,1,1
1791600353.880150,205,1,1
1791600353.913560,204,1,1
1791600353.9468400,203,2,1
1791600353.980160,201,1,1
1791600354.0135800,200,1,1
1791600354.046980,200,1,1
1791600354.080250,201,1,1
1791600354.11349,201,1,1
1791600354.146940,201,1,1
1791600354.179870,201,1,1
1791600354.213010,202,1,2
1791600354.2467200,202,1,1
1791600354.2803400,203,1,1
1791600354.314130,203,1,1
1791600354.346760,202,1,1
1791600354.380330,203,1,1
1791600354.413610,203,1,1
1791600354.446480,203,1,1
1791600354.4799,203,1,1
1791600354.513500,203,1,1
1791600354.546840,204,1,0
1791600354.580380,204,2,1
1791600354.613650,204,2,1
1791600354.647020,205,2,1
1791600354.680300,205,2,1
1791600354.7121700,205,2,1
1791600354.74688,205,2,1
1791600354.779790,202,1,0
1791600354.813510,200,1,1
1791600354.8466000,200,1,1
1791600354.879580,200,1,1
1791600354.913560,201,1,1
1791600354.947030,201,1,1
1791600354.9797200,201,1,1
1791600355.0134700,201,1,1
1791600355.046770,201,1,1
1791600355.0803900,201,1,1
1791600355.1135200,201,1,1
1791600355.146700,201,2,1
1791600355.180150,201,1,1
1791600355.212990,201,1,1
1791600355.246730,202,1,1
1791600355.280100,203,2,1
1791600355.313150,203,1,1
1791600355.346760,203,2,1
1791600355.380080,203,2,1
1791600355.41321,204,1,2
1791600355.446790,205,2,1
1791600355.48029,204,2,1
1791600355.5130200,205,2,1
1791600355.5471500,205,2,1
1791600355.5802700,203,2,1
1791600355.6135600,201,2,1
1791600355.64684,200,1,1
1791600355.67969,200,1,1
1791600355.713090,200,1,1
1791600355.746780,201,1,1
1791600355.7801000,201,1,1
1791600355.813130,201,1,1
1791600355.846910,202,1,1
1791600355.880530,202,1,1
1791600355.913510,202,1,1
1791600355.946860,202,1,1
1791600355.980240,202,1,1
1791600356.013260,202,1,1
1791600356.046470,202,1,1
1791600356.079970,203,1,1
1791600356.112890,203,1,1
1791600356.146740,203,2,1
1791600356.179420,203,1,1
1791600356.213890,204,2,1
1791600356.24691,204,2,1
1791600356.2806000,204,2,1
1791600356.313170,204,2,1
1791600356.347040,203,1,1
1791600356.380050,201,1,1
1791600356.413000,200,1,1
1791600356.4468900,200,1,1
1791600356.48015,200,1,1
1791600356.513420,200,1,1
1791600356.546600,200,1,1
1791600356.580030,201,1,1
1791600356.613460,201,1,1
1791600356.646730,201,1,1
1791600356.680170,201,1,1
1791600356.713150,201,1,1
1791600356.7468500,201,2,2
1791600356.780280,202,1,2
1791600356.813660,202,1,1
1791600356.8465600,202,1,1
1791600356.879590,203,2,1
1791600356.912990,203,2,1
1791600356.946710,203,2,1
1791600356.980180,203,2,1
1791600357.013210,204,2,1
1791600357.046740,204,2,1
1791600357.0804900,205,2,1
1791600357.113590,203,2,1
1791600357.146650,201,2,1
1791600357.179910,199,2,1
1791600357.2136600,200,1,1
1791600357.246940,200,1,2
1791600357.280200,199,1,1
1791600357.31305,200,1,1
1791600357.346210,200,1,1
1791600357.379780,200,1,1
1791600357.4130300,201,1,1
1791600357.446520,200,1,2
1791600357.4798700,201,1,1
1791600357.5132400,201,1,1
1791600357.5467100,201,1,1
1791600357.580220,201,1,2
1791600357.613660,201,1,1
1791600357.646620,202,2,1
1791600357.6803600,203,1,2
1791600357.713620,203,1,1
1791600357.7457300,203,2,1
1791600357.780080,203,2,1
1791600357.8136300,204,2,1
1791600357.846660,203,2,1
1791600357.8805100,204,2,1
1791600357.913100,204,2,1
1791600357.946960,203,2,1
1791600357.978980,201,2,1
1791600358.0133900,200,1,1
1791600358.046600,199,1,1
1791600358.080130,199,1,1
1791600358.1134000,199,1,2
1791600358.146690,199,1,2
1791600358.179960,199,1,1
1791600358.213630,199,1,1
1791600358.246850,200,1,1
1791600358.279650,200,1,1
1791600358.3135700,200,1,1
1791600358.3466000,200,1,1
1791600358.383500,200,1,1
1791600358.413540,201,1,1
1791600358.4471200,201,1,1
1791600358.47983,201,1,1
1791600358.513050,201,1,1
1791600358.5464400,201,1,1
1791600358.579700,202,1,1
1791600358.61347,203,1,2
1791600358.646870,203,1,1
1791600358.680190,203,1,1
1791600358.713480,203,1,1
1791600358.746820,203,1,1
1791600358.780650,203,2,1
1791600358.813030,202,2,1
1791600358.8467900,199,1,1
1791600358.879780,199,1,1
1791600358.9131100,199,1,2
1791600358.946850,199,1,1
1791600358.9804300,199,1,1
1791600359.0140500,199,1,1
1791600359.046620,199,1,1
1791600359.079530,200,1,2
1791600359.113630,200,1,1
1791600359.147080,200,1,1
1791600359.18049,200,1,2
1791600359.215080,200,1,1
1791600359.2470500,200,1,1
1791600359.28035,201,1,1
1791600359.3133200,201,1,2
1791600359.3468600,201,1,1
1791600359.379980,201,1,1
1791600359.4133500,201,1,2
1791600359.4466800,202,1,2
1791600359.47977,202,1,1
1791600359.5133000,202,1,1
1791600359.546940,202,1,1
1791600359.5796300,202,1,2
1791600359.613460,200,1,2
1791600359.6462600,199,1,1
1791600359.679660,199,0,1
1791600359.71355,199,0,2
1791600359.7467700,199,1,2
1791600359.78023,200,1,2
1791600359.813870,200,1,1
1791600359.84673,200,0,1
1791600359.880060,201,1,2
1791600359.913520,201,1,2
1791600359.947030,201,1,2
1791600359.9792700,201,1,2
1791600360.015570,202,1,2
1791600360.046740,202,1,2
1791600360.0801800,203,1,2
1791600360.113190,204,1,2
1791600360.146430,203,1,2
1791600360.179910,204,1,2
1791600360.2135100,204,1,2
1791600360.246700,204,1,2
1791600360.2801700,204,1,1
1791600360.313430,204,1,2
1791600360.346660,205,1,2
1791600360.3799300,205,1,2
1791600360.413650,205,1,1
1791600360.446550,205,2,1
1791600360.480090,205,2,1
1791600360.513370,205,2,1
1791600360.546740,204,1,2
1791600360.579980,202,1,2
1791600360.613440,200,1,2
1791600360.64679,200,1,1
1791600360.679900,200,1,2
1791600360.712900,201,1,1
1791600360.746600,201,1,2
1791600360.779840,201,1,2
1791600360.813230,201,1,2
1791600360.846140,201,1,2
1791600360.879540,202,1,2
1791600360.913340,202,0,1
1791600360.946600,202,1,2
1791600360.9797600,203,0,1
1791600361.0132000,202,0,2
1791600361.046700,203,1,2
1791600361.07974,204,1,2
1791600361.1136700,204,1,2
1791600361.1468200,204,1,2
1791600361.1796400,204,1,2
1791600361.213220,204,1,2
1791600361.2466200,204,1,2
1791600361.2804900,205,1,2
1791600361.3126300,204,1,2
1791600361.346250,205,1,1
1791600361.3800800,205,1,2
1791600361.412890,206,1,1
1791600361.446630,205,1,2
1791600361.4799800,203,1,1
1791600361.5136800,201,1,1
1791600361.546150,199,1,2
1791600361.5803100,200,1,2
1791600361.613670,201,1,2
1791600361.64678,201,1,2
1791600361.679820,201,1,2
1791600361.7137100,201,0,2
1791600361.7466100,202,0,2
1791600361.780470,202,1,2
1791600361.813140,202,0,2
1791600361.8466600,203,0,2
1791600361.880090,203,0,2
1791600361.91323,202,1,2
1791600361.946400,203,1,2
1791600361.979750,204,1,2
1791600362.013300,204,1,2
1791600362.046510,205,0,2
1791600362.0798500,205,1,2
1791600362.113370,205,1,2
1791600362.1469500,205,1,2
1791600362.179960,205,1,1
1791600362.213410,205,1,1
1791600362.2467000,205,1,1
1791600362.2805700,204,1,2
1791600362.313620,201,1,2
1791600362.346810,200,1,1
1791600362.379770,201,0,2
1791600362.4135300,201,0,2
1791600362.446460,201,1,2
1791600362.4799700,202,1,2
1791600362.513190,202,0,2
1791600362.546770,203,0,2
1791600362.5798300,203,1,2
1791600362.613780,203,1,2
1791600362.646840,204,1,2
1791600362.680190,204,1,2
1791600362.7135400,205,0,2
1791600362.7467300,205,0,2
1791600362.779850,205,1,2
1791600362.8136700,205,1,2
1791600362.846880,206,1,2
1791600362.879820,205,1,2
1791600362.913500,205,1,2
1791600362.946630,206,1,1
1791600362.97996,205,1,2
1791600363.013630,205,1,2
1791600363.0465500,206,1,1
1791600363.079670,205,1,2
1791600363.113810,203,1,2
1791600363.146470,201,1,2
1791600363.179600,201,0,1
1791600363.2138700,201,1,2
1791600363.246330,202,0,2
1791600363.280330,202,0,2
1791600363.313450,203,1,2
1791600363.34712,203,1,2
1791600363.379750,205,0,2
1791600363.4132300,205,1,2
1791600363.44677,205,0,2
1791600363.479750,205,1,2
1791600363.513620,205,1,2
1791600363.546370,206,1,3
1791600363.57985,206,1,3
1791600363.613300,206,1,2
1791600363.646530,206,1,2
1791600363.680290,206,1,2
1791600363.713230,206,1,2
1791600363.746490,207,1,2
1791600363.779880,207,1,2
1791600363.8130300,207,1,2
1791600363.846890,207,1,2
1791600363.880190,207,1,2
1791600363.913170,205,1,1
1791600363.946630,203,1,2
1791600363.9798300,201,1,2
1791600364.0133200,201,1,3
1791600364.046640,202,0,2
1791600364.079940,203,0,2
1791600364.113170,203,0,2
1791600364.145950,203,1,2
1791600364.1798300,204,0,2
1791600364.2127400,205,1,2
1791600364.246640,205,1,2
1791600364.2801400,205,0,2
1791600364.3127200,205,1,3
1791600364.346910,206,1,3
1791600364.379910,206,1,3
1791600364.413260,206,1,2
1791600364.446810,206,1,2
1791600364.480320,207,1,1
1791600364.5130700,207,1,2
1791600364.546680,206,1,2
1791600364.580030,207,1,2
1791600364.613410,207,1,1
1791600364.646480,207,1,1
1791600364.679820,206,1,1
1791600364.713680,204,1,2
1791600364.746000,201,1,1
1791600364.779890,201,0,2
1791600364.812870,202,0,2
1791600364.846870,202,0,2
1791600364.8801400,203,0,2
1791600364.912520,203,1,2
1791600364.946910,204,1,2
1791600364.9799000,205,0,2
1791600365.0127600,205,0,2
1791600365.04652,205,0,2
1791600365.07954,205,1,2
1791600365.113100,205,0,2
1791600365.146700,206,0,3
1791600365.179860,206,0,2
1791600365.213260,207,0,3
1791600365.246670,206,0,2
1791600365.27991,206,0,2
1791600365.313140,206,0,2
1791600365.3468300,207,1,2
1791600365.379880,207,1,2
1791600365.413300,207,1,2
1791600365.446020,206,1,2
1791600365.480270,204,1,2
1791600365.513290,202,0,2
1791600365.546500,202,0,3
1791600365.5801100,203,0,2
1791600365.612940,203,0,2
1791600365.646640,203,1,2
1791600365.679380,204,0,2
1791600365.7135300,204,0,2
1791600365.746600,205,0,3
1791600365.7797900,205,1,2
1791600365.8126000,205,1,3
1791600365.847520,206,0,3
1791600365.8799700,206,1,3
1791600365.913100,207,0,3
1791600365.946900,207,0,2
1791600365.979900,207,0,2
1791600366.0134000,207,1,2
1791600366.046800,207,1,2
1791600366.079930,207,1,2
1791600366.1129600,207,1,2
1791600366.146220,207,1,2
1791600366.180010,207,1,2
1791600366.213430,207,1,2
1791600366.246520,206,1,2
1791600366.280190,204,1,2
1791600366.313410,202,0,3
1791600366.346490,202,0,2
1791600366.380060,203,0,2
1791600366.4132300,203,0,2
1791600366.446400,203,1,2
1791600366.479870,204,1,3
1791600366.51318,204,0,2
1791600366.547070,205,0,3
1791600366.579940,205,1,2
1791600366.613300,205,1,3
1791600366.6465900,206,0,3
1791600366.67985,206,1,2
1791600366.713080,207,0,3
1791600366.746690,207,0,2
1791600366.779820,207,1,2
1791600366.813090,207,0,2
1791600366.846450,207,1,2
1791600366.880200,208,1,2
1791600366.913370,208,0,1
1791600366.9467400,208,1,2
1791600366.979760,208,1,2
1791600367.013320,208,1,2
1791600367.046000,208,1,2
1791600367.07992,208,1,1
1791600367.112380,207,1,2
1791600367.146060,206,1,2
1791600367.180130,203,1,2
1791600367.213190,201,1,3
1791600367.246240,202,0,2
1791600367.279940,203,1,2
1791600367.31307,203,0,2
1791600367.3455900,203,1,2
1791600367.379700,204,1,2
1791600367.4126000,204,0,2
1791600367.446780,205,0,2
1791600367.4794600,205,1,2
1791600367.513030,205,1,3
1791600367.5466200,206,1,3
1791600367.579710,206,1,2
1791600367.613400,206,0,2
1791600367.646380,207,0,3
1791600367.680040,207,1,2
1791600367.7133600,207,0,2
1791600367.7465400,207,1,1
1791600367.7798700,207,1,2
1791600367.813600,207,0,2
1791600367.846780,207,1,2
1791600367.879630,207,1,1
1791600367.913250,207,1,2
1791600367.9468200,207,1,2
1791600367.979590,205,1,2
1791600368.013050,202,0,2
1791600368.046110,202,0,2
1791600368.080130,202,0,3
1791600368.113430,203,0,3
1791600368.147040,203,1,3
1791600368.180030,204,0,2
1791600368.2133400,204,0,2
1791600368.2466700,205,1,2
1791600368.280310,205,1,3
1791600368.313350,205,1,3
1791600368.346630,205,1,3
1791600368.379880,206,0,2
1791600368.413250,206,0,2
1791600368.447300,207,0,2
1791600368.47955,207,1,2
1791600368.512930,207,1,3
1791600368.546620,207,1,2
1791600368.5799500,207,1,2
1791600368.6131200,207,1,2
1791600368.646150,207,1,2
1791600368.679820,207,1,2
1791600368.713100,207,1,1
1791600368.746750,205,1,2
1791600368.7803300,203,1,3
1791600368.813820,202,1,2
1791600368.846310,202,0,3
1791600368.8795800,203,0,2
1791600368.913260,203,1,2
1791600368.946890,203,1,2
1791600368.979590,204,0,2
1791600369.013790,205,1,3
1791600369.046370,205,1,2
1791600369.079580,205,1,3
1791600369.113260,205,1,3
1791600369.146170,205,1,3
1791600369.179420,206,0,3
1791600369.213540,206,0,2
1791600369.246280,206,0,2
1791600369.279950,207,1,2
1791600369.313520,206,1,2
1791600369.3476000,207,1,2
1791600369.379880,206,1,2
1791600369.412940,207,1,2
1791600369.446760,206,1,2
1791600369.479950,207,1,2
1791600369.513170,206,1,2
1791600369.5464600,205,1,2
1791600369.5798000,203,1,2
1791600369.6130700,201,1,2
1791600369.646700,201,1,2
1791600369.6794400,202,1,2
1791600369.7130200,202,1,2
1791600369.746600,202,0,2
1791600369.7796400,203,0,2
1791600369.812700,204,0,2
1791600369.846890,204,1,2
1791600369.880100,204,0,2
1791600369.912500,204,1,2
1791600369.9465400,204,0,2
1791600369.979690,204,1,3
1791600370.0133,205,1,2
1791600370.046510,205,1,2
1791600370.07986,205,1,2
1791600370.113380,205,1,2
1791600370.146400,205,1,1
1791600370.179870,205,1,2
1791600370.2129300,205,1,2
1791600370.2468800,206,1,1
1791600370.280370,206,1,1
1791600370.31291,206,1,2
1791600370.3468500,206,1,2
1791600370.379900,203,1,2
1791600370.412980,201,1,2
1791600370.4465300,201,1,1
1791600370.479720,201,1,2
1791600370.513280,201,1,2
1791600370.54649,201,1,2
1791600370.5799800,202,0,2
1791600370.613860,203,0,2
1791600370.6462300,203,0,2
1791600370.680180,203,1,2
1791600370.7127700,203,1,2
1791600370.746820,203,1,2
1791600370.779970,203,0,2
1791600370.81317,203,1,2
1791600370.846340,204,1,2
1791600370.87974,204,1,2
1791600370.913200,204,1,2
1791600370.946740,204,1,2
1791600370.980200,205,1,2
1791600371.01306,205,1,2
1791600371.046130,205,1,1
1791600371.0798000,205,1,1
1791600371.113080,205,1,2
1791600371.146690,203,1,1
1791600371.18007,201,1,1
1791600371.212850,201,0,2
1791600371.246600,201,1,2
1791600371.279790,201,1,2
1791600371.313120,201,1,2
1791600371.346210,202,0,1
1791600371.379820,202,1,2
1791600371.41324,202,1,2
1791600371.446580,202,1,2
1791600371.4798800,202,1,2
1791600371.5129100,203,1,2
1791600371.546770,203,1,2
1791600371.580100,203,1,2
1791600371.613570,203,1,2
1791600371.646640,203,1,2
1791600371.679860,203,1,2
1791600371.7127400,203,1,2
1791600371.74628,204,1,2
1791600371.780240,204,1,1
1791600371.813250,204,1,1
1791600371.846300,205,2,2
1791600371.879850,204,1,2
1791600371.9124800,202,1,2
1791600371.945920,200,1,2
1791600371.979550,200,1,2
1791600372.0127500,200,0,2
1791600372.0466700,200,1,1
1791600372.078440,201,1,2
1791600372.1128700,201,0,2
1791600372.1461200,201,1,2
1791600372.179960,202,1,1
1791600372.213220,202,1,2
1791600372.246480,202,1,2
1791600372.280440,202,1,2
1791600372.31293,203,1,2
1791600372.346310,203,1,2
1791600372.380130,203,1,2
1791600372.4137600,203,1,2
1791600372.4465800,203,1,2
1791600372.480020,203,1,2
1791600372.5133200,204,1,2
1791600372.546110,203,2,2
1791600372.577860,204,1,2
1791600372.613380,204,1,1
1791600372.646280,204,1,1
1791600372.67982,202,1,2
1791600372.71278,200,1,1
1791600372.746150,200,1,2
1791600372.7794000,200,1,2
1791600372.814250,200,0,2
1791600372.8462300,201,1,2
1791600372.880160,201,1,2
1791600372.9130800,201,1,2
1791600372.9463200,202,1,1
1791600372.9795100,202,1,2
1791600373.012850,202,1,1
1791600373.0465200,202,1,2
1791600373.079800,202,1,1
1791600373.1132200,203,1,2
1791600373.1467100,203,1,2
1791600373.179640,203,1,2
1791600373.2133400,203,1,2
1791600373.246540,203,1,2
1791600373.280020,203,1,3
1791600373.313120,204,1,2
1791600373.346190,204,1,2
1791600373.3795400,204,1,2
1791600373.41343,203,1,2
1791600373.446590,201,1,1
1791600373.479520,200,1,2
1791600373.5130500,200,1,3
1791600373.546020,200,1,2
1791600373.579960,201,0,2
1791600373.613690,201,1,2
1791600373.64661,201,0,2
1791600373.67995,202,0,2
1791600373.713160,201,1,2
1791600373.745820,203,1,2
1791600373.7795500,203,1,2
1791600373.8133200,203,0,2
1791600373.845890,203,1,2
1791600373.879670,204,1,2
1791600373.9136300,204,1,2
1791600373.9465800,204,1,2
1791600373.979380,204,1,2
1791600374.0132300,204,1,2
1791600374.047030,204,1,2
1791600374.0795100,204,0,2
1791600374.1133200,204,1,2
1791600374.1461700,204,1,2
1791600374.1798700,203,1,2
1791600374.213010,201,0,2
1791600374.246520,200,0,3
1791600374.279700,201,0,2
1791600374.3186600,201,0,2
1791600374.3452,201,0,2
1791600374.37985,201,0,2
1791600374.412790,202,0,2
1791600374.446180,203,0,3
1791600374.4793400,203,0,2
1791600374.513130,203,1,2
1791600374.5468700,203,1,2
1791600374.57963,204,1,2
1791600374.612990,204,1,2
1791600374.646520,205,1,2
1791600374.679900,204,1,2
1791600374.7132800,205,1,3
1791600374.744640,205,1,2
1791600374.778650,205,1,2
1791600374.813120,205,1,2
1791600374.846650,205,1,2
1791600374.879450,205,1,3
1791600374.913160,205,1,2
1791600374.946480,205,1,2
1791600374.979510,203,1,2
1791600375.0126500,202,1,2
1791600375.046510,201,0,2
1791600375.0792900,200,0,2
1791600375.113420,201,0,2
1791600375.1464300,201,0,2
1791600375.179810,202,0,2
1791600375.213270,203,0,2
1791600375.247180,203,0,2
1791600375.279980,204,1,3
1791600375.313410,203,1,2
1791600375.346490,204,0,2
1791600375.379920,204,1,2
1791600375.41314,204,0,2
1791600375.446770,205,1,3
1791600375.479430,205,1,2
1791600375.513760,205,1,2
1791600375.546450,205,1,3
1791600375.5799300,205,1,3
1791600375.613130,206,0,3
1791600375.6466300,205,1,2
1791600375.680130,205,1,2
1791600375.713060,205,1,2
1791600375.746660,205,1,2
1791600375.77945,205,1,2
1791600375.812760,206,1,2
1791600375.8463500,205,1,2
1791600375.8801400,203,1,2
1791600375.913170,201,1,2
1791600375.946970,201,0,2
1791600375.9798900,201,0,2
1791600376.013620,201,0,2
1791600376.0465000,202,0,2
1791600376.079860,202,0,2
1791600376.1128900,203,0,2
1791600376.1472100,203,1,2
1791600376.179960,203,1,2
1791600376.212970,204,1,2
1791600376.246480,204,1,2
1791600376.279800,204,1,2
1791600376.313650,204,1,2
1791600376.346500,204,1,3
1791600376.3797500,205,1,2
1791600376.413250,205,1,2
1791600376.445620,205,1,3
1791600376.480170,205,1,2
1791600376.5128300,205,1,2
1791600376.546790,205,1,2
1791600376.579870,205,1,3
1791600376.612630,206,1,2
1791600376.645660,205,1,2
1791600376.6801800,205,1,2
1791600376.712810,204,1,2
1791600376.746700,201,1,1
1791600376.780060,200,0,2
1791600376.81338,201,0,3
1791600376.846100,201,1,2
1791600376.880100,201,1,2
1791600376.912850,202,0,2
1791600376.9466200,202,0,2
1791600376.9797500,203,1,2
1791600377.0133300,204,1,2
1791600377.046380,204,1,2
1791600377.079810,204,1,2
1791600377.1132000,204,0,2
1791600377.146550,204,0,2
1791600377.1799400,204,1,2
1791600377.213270,205,1,3
1791600377.246390,205,1,2
1791600377.280130,205,1,2
1791600377.313290,206,1,2
1791600377.346170,205,1,2
1791600377.3800000,206,1,2
1791600377.412770,206,1,2
1791600377.446070,205,1,1
1791600377.479380,205,1,2
1791600377.5131500,205,1,2
1791600377.5462400,206,1,2
1791600377.579650,206,2,2
1791600377.6136600,205,1,2
1791600377.646870,204,1,2
1791600377.6798000,201,1,2
1791600377.712460,200,1,2
1791600377.74643,200,1,2
1791600377.779840,201,1,2
1791600377.81283,201,1,2
1791600377.846130,201,1,2
1791600377.8797900,202,1,2
1791600377.9131800,203,0,3
1791600377.946520,203,1,2
1791600377.9799100,203,1,2
1791600378.012640,203,1,2
1791600378.0454700,204,1,2
1791600378.078250,204,1,2
1791600378.112850,204,1,2
1791600378.146440,205,1,2
1791600378.179520,204,1,2
1791600378.2133,205,1,2
1791600378.246000,205,1,2
1791600378.279980,205,1,2
1791600378.3129500,205,1,2
1791600378.3464600,205,1,2
1791600378.379340,205,1,2
1791600378.413450,205,2,2
1791600378.44701,205,1,2
1791600378.479340,206,1,1
1791600378.51306,206,2,1
1791600378.546030,205,2,2
1791600378.579370,202,1,2
1791600378.613060,201,1,3
1791600378.645850,201,1,2
1791600378.679600,201,1,2
1791600378.712930,201,1,2
1791600378.745920,201,1,2
1791600378.779490,201,1,2
1791600378.8129600,202,1,2
1791600378.84651,202,1,2
1791600378.879890,203,1,2
1791600378.913290,203,1,2
1791600378.9469400,203,1,2
1791600378.9799600,203,1,3
1791600379.013480,204,2,2
1791600379.046650,204,1,2
1791600379.079490,204,1,2
1791600379.113090,204,1,2
1791600379.145760,204,1,2
1791600379.1796800,204,1,2
1791600379.21281,205,1,2
1791600379.246160,204,1,2
1791600379.279160,205,1,2
1791600379.313100,205,1,2
1791600379.3465000,205,1,2
1791600379.3788700,202,1,2
1791600379.41326,201,1,2
1791600379.446340,200,1,2
1791600379.4797300,201,1,2
1791600379.5130900,201,1,3
1791600379.546380,201,1,1
1791600379.579540,202,1,2
1791600379.613300,203,1,2
1791600379.646290,203,1,2
1791600379.679400,203,1,2
1791600379.712860,203,1,2
1791600379.7466100,203,1,2
1791600379.779560,203,1,2
1791600379.812850,203,1,2
1791600379.846610,204,1,2
1791600379.879320,204,1,2
1791600379.912540,204,2,2
1791600379.946840,204,1,2
1791600379.9796200,204,1,2
1791600380.013450,204,1,2
1791600380.04593,204,1,2
1791600380.0801300,204,1,2
1791600380.112580,202,1,2
1791600380.1465100,201,1,2
1791600380.179640,200,1,3
1791600380.2129400,200,0,3
1791600380.246870,201,0,3
1791600380.27955,201,1,2
1791600380.313280,202,1,2
1791600380.346330,203,0,2
1791600380.379600,203,1,2
1791600380.413080,204,1,3
1791600380.4466400,204,1,2
1791600380.4793800,204,0,3
1791600380.51284,204,1,2
1791600380.546400,205,1,2
1791600380.579920,205,1,3
1791600380.613320,205,1,3
1791600380.6466600,205,1,3
1791600380.679590,206,1,3
1791600380.71332,206,1,2
1791600380.746490,205,1,2
1791600380.779910,206,1,2
1791600380.813100,206,1,2
1791600380.84676,205,1,2
1791600380.879880,203,1,3
1791600380.9127100,201,0,2
1791600380.946700,201,0,3
1791600380.979230,202,0,3
1791600381.012830,203,0,3
1791600381.046560,203,1,3
1791600381.079840,203,1,3
1791600381.1128500,203,1,3
1791600381.1470700,205,0,3
1791600381.1798000,205,0,3
1791600381.212950,205,1,3
1791600381.2466500,205,1,3
1791600381.279760,205,1,3
1791600381.31303,206,0,3
1791600381.346800,207,0,3
1791600381.3795800,207,1,3
1791600381.4126900,207,1,3
1791600381.446790,207,1,3
1791600381.4796500,207,1,3
1791600381.512630,207,1,3
1791600381.5463100,207,1,3
1791600381.579520,207,1,2
1791600381.613100,206,1,3
1791600381.6462300,203,0,3
1791600381.6796800,202,0,3
1791600381.7129200,203,0,4
1791600381.7465500,203,0,3
1791600381.779730,203,1,3
1791600381.812770,204,1,3
1791600381.8465700,204,0,3
1791600381.8799700,205,1,4
1791600381.912990,205,1,3
1791600381.9466400,205,1,3
1791600381.979650,205,1,3
1791600382.013320,206,0,3
1791600382.046310,206,0,3
1791600382.078980,207,0,3
1791600382.112690,207,0,3
1791600382.145700,208,1,3
1791600382.179710,208,1,3
1791600382.2127600,208,1,3
1791600382.246380,207,1,3
1791600382.2799000,208,1,2
1791600382.312770,208,1,2
1791600382.346560,208,1,3
1791600382.379430,207,1,2
1791600382.413160,205,1,3
1791600382.446210,204,1,2
1791600382.4797300,203,0,3
1791600382.513000,204,0,3
1791600382.5467200,204,0,3
1791600382.579820,205,0,3
1791600382.613430,205,0,3
1791600382.6462800,205,0,3
1791600382.680150,206,1,3
1791600382.713030,206,0,3
1791600382.746080,206,0,3
1791600382.779630,206,0,3
1791600382.812580,207,0,3
1791600382.8463300,206,1,3
1791600382.8794200,207,1,3
1791600382.9133,207,1,3
1791600382.946580,207,1,3
1791600382.979910,208,1,4
1791600383.0134000,208,1,3
1791600383.046350,208,1,3
1791600383.079460,208,1,3
1791600383.113070,208,1,3
1791600383.146420,208,1,2
1791600383.1789100,207,1,3
1791600383.212450,205,1,3
1791600383.246380,204,0,3
1791600383.27971,203,1,2
1791600383.3128300,204,0,3
1791600383.3454400,204,0,3
1791600383.379260,205,1,3
1791600383.413160,205,0,3
1791600383.446030,205,1,3
1791600383.479860,205,1,3
1791600383.513200,206,0,3
1791600383.5463100,206,1,3
1791600383.579690,206,0,3
1791600383.6132000,206,1,3
1791600383.64635,207,0,3
1791600383.679800,207,0,3
1791600383.712980,207,0,3
1791600383.74633,208,1,3
1791600383.779680,208,1,3
1791600383.813160,208,1,3
1791600383.846180,208,1,2
1791600383.879550,208,1,2
1791600383.913160,208,1,2
1791600383.946630,208,1,2
1791600383.979590,208,1,3
1791600384.013080,207,1,2
1791600384.046500,207,1,2
1791600384.079440,208,1,2
1791600384.113100,208,1,2
1791600384.1466000,207,1,2
1791600384.179210,205,1,3
1791600384.212680,203,0,3
1791600384.246430,203,0,3
1791600384.279330,203,1,3
1791600384.313060,203,1,3
1791600384.3463300,204,0,3
1791600384.379910,204,0,3
1791600384.413390,205,0,3
1791600384.446270,205,0,2
1791600384.479870,205,1,3
1791600384.512870,205,1,3
1791600384.5459000,205,1,3
1791600384.579590,206,1,3
1791600384.6127400,207,0,3
1791600384.646140,207,0,3
1791600384.679640,207,0,3
1791600384.7126900,207,0,3
1791600384.746840,207,0,3
1791600384.7795400,207,0,3
1791600384.813120,208,1,3
1791600384.8459000,207,1,3
1791600384.879250,207,1,3
1791600384.912740,207,1,3
1791600384.9461900,207,1,2
1791600384.979960,207,1,2
1791600385.012980,207,1,3
1791600385.046130,207,1,2
1791600385.0795800,207,1,2
1791600385.11337,204,1,2
1791600385.146010,203,1,3
1791600385.179560,203,0,3
1791600385.212730,203,0,2
1791600385.246170,204,1,3
1791600385.27923,204,1,3
1791600385.3137100,205,0,2
1791600385.3467200,205,1,3
1791600385.379680,206,1,3
1791600385.412960,206,1,3
1791600385.4464700,205,1,3
1791600385.479730,205,1,3
1791600385.513000,206,1,3
1791600385.546040,206,1,3
1791600385.579460,206,1,3
1791600385.6126800,206,0,3
1791600385.6465100,207,0,3
1791600385.679050,207,1,3
1791600385.712830,214,3,4
1791600385.7448100,249,196,158